STEP TEMP
0 0.8
1 0.799925
2 0.799702
3 0.799329
4 0.798808
5 0.798139
6 0.797322
7 0.796358
8 0.795247
9 0.79399
10 0.792587
11 0.791039
12 0.789347
13 0.787512
14 0.785535
15 0.783416
16 0.781157
17 0.778761
18 0.776227
19 0.773554
20 0.770746
21 0.767802
22 0.764725
23 0.761514
24 0.758173
25 0.754701
26 0.7511
27 0.747371
28 0.743515
29 0.739535
30 0.735432
31 0.731206
32 0.72686
33 0.722395
34 0.717812
35 0.71311
36 0.708294
37 0.703364
38 0.698325
39 0.693176
40 0.687921
41 0.682561
42 0.677097
43 0.671534
44 0.665873
45 0.660115
46 0.654263
47 0.648319
48 0.642285
49 0.636164
50 0.629961
51 0.623677
52 0.617314
53 0.610877
54 0.604368
55 0.59779
56 0.591147
57 0.584442
58 0.577678
59 0.570859
60 0.563988
61 0.557069
62 0.550106
63 0.543102
64 0.536062
65 0.528989
66 0.521887
67 0.514761
68 0.507614
69 0.50045
70 0.493275
71 0.486092
72 0.478905
73 0.471719
74 0.464538
75 0.457367
76 0.45021
77 0.443071
78 0.435956
79 0.428869
80 0.421815
81 0.414797
82 0.407821
83 0.400891
84 0.394012
85 0.387188
86 0.380424
87 0.373724
88 0.367092
89 0.360533
90 0.354051
91 0.347651
92 0.341335
93 0.33511
94 0.328978
95 0.322943
96 0.31701
97 0.311181
98 0.305462
99 0.299854
100 0.294363
101 0.28899
102 0.283739
103 0.278612
104 0.273613
105 0.268744
106 0.264008
107 0.259407
108 0.254943
109 0.250619
110 0.246435
111 0.242394
112 0.238497
113 0.234745
114 0.23114
115 0.227682
116 0.224373
117 0.221212
118 0.2182
119 0.215338
120 0.212625
121 0.210062
122 0.207648
123 0.205383
124 0.203265
125 0.201295
126 0.199472
127 0.197794
128 0.196261
129 0.19487
130 0.19362
131 0.19251
132 0.191538
133 0.190701
134 0.189998
135 0.189427
136 0.188985
137 0.188671
138 0.188481
139 0.188413
140 0.188464
141 0.188632
142 0.188914
143 0.189306
144 0.189807
145 0.190413
146 0.19112
147 0.191927
148 0.192829
149 0.193825
150 0.194909
151 0.19608
152 0.197334
153 0.198668
154 0.200078
155 0.201562
156 0.203114
157 0.204734
158 0.206416
159 0.208158
160 0.209957
161 0.211809
162 0.213711
163 0.21566
164 0.217653
165 0.219687
166 0.22176
167 0.223867
168 0.226006
169 0.228173
170 0.230367
171 0.232584
172 0.23482
173 0.237075
174 0.239344
175 0.241626
176 0.243918
177 0.246216
178 0.24852
179 0.250826
180 0.253132
181 0.255436
182 0.257736
183 0.26003
184 0.262316
185 0.264591
186 0.266854
187 0.269103
188 0.271338
189 0.273555
190 0.275753
191 0.277931
192 0.280088
193 0.282222
194 0.284332
195 0.286417
196 0.288475
197 0.290506
198 0.292508
199 0.294481
200 0.296424
201 0.298336
202 0.300216
203 0.302063
204 0.303878
205 0.305658
206 0.307404
207 0.309116
208 0.310792
209 0.312434
210 0.31404
211 0.31561
212 0.317145
213 0.318645
214 0.320109
215 0.321537
216 0.32293
217 0.324287
218 0.325608
219 0.326895
220 0.328147
221 0.329365
222 0.330549
223 0.331699
224 0.332816
225 0.333899
226 0.334951
227 0.33597
228 0.336959
229 0.337916
230 0.338843
231 0.339741
232 0.34061
233 0.341452
234 0.342266
235 0.343053
236 0.343814
237 0.344549
238 0.34526
239 0.345946
240 0.34661
241 0.347251
242 0.34787
243 0.348469
244 0.349047
245 0.349607
246 0.350148
247 0.350671
248 0.351178
249 0.351669
250 0.352145
251 0.352607
252 0.353056
253 0.353493
254 0.353919
255 0.354334
256 0.354739
257 0.355135
258 0.355523
259 0.355904
260 0.356279
261 0.356648
262 0.357011
263 0.357371
264 0.357727
265 0.35808
266 0.358432
267 0.358783
268 0.359133
269 0.359484
270 0.359836
271 0.36019
272 0.360547
273 0.360908
274 0.361273
275 0.361643
276 0.362018
277 0.3624
278 0.362787
279 0.363181
280 0.363583
281 0.363993
282 0.364412
283 0.364839
284 0.365275
285 0.365721
286 0.366177
287 0.366644
288 0.367122
289 0.367612
290 0.368113
291 0.368626
292 0.369152
293 0.36969
294 0.370241
295 0.370806
296 0.371384
297 0.371976
298 0.372582
299 0.373203
300 0.373838
301 0.374488
302 0.375153
303 0.375833
304 0.376527
305 0.377237
306 0.377961
307 0.378699
308 0.379451
309 0.380217
310 0.380998
311 0.381793
312 0.382601
313 0.383423
314 0.384258
315 0.385107
316 0.385969
317 0.386846
318 0.387735
319 0.388638
320 0.389553
321 0.39048
322 0.391418
323 0.392367
324 0.393328
325 0.394298
326 0.395279
327 0.396268
328 0.397266
329 0.398274
330 0.39929
331 0.400314
332 0.401345
333 0.402382
334 0.403425
335 0.404474
336 0.405528
337 0.406586
338 0.407648
339 0.408713
340 0.40978
341 0.410849
342 0.411919
343 0.41299
344 0.414062
345 0.415133
346 0.416204
347 0.417273
348 0.41834
349 0.419403
350 0.420464
351 0.421521
352 0.422573
353 0.423621
354 0.424663
355 0.425699
356 0.426729
357 0.427752
358 0.428767
359 0.429773
360 0.43077
361 0.431757
362 0.432734
363 0.433701
364 0.434657
365 0.435601
366 0.436533
367 0.437452
368 0.438357
369 0.439248
370 0.440124
371 0.440985
372 0.44183
373 0.44266
374 0.443472
375 0.444268
376 0.445045
377 0.445805
378 0.446547
379 0.44727
380 0.447974
381 0.448658
382 0.449322
383 0.449966
384 0.450589
385 0.45119
386 0.451771
387 0.45233
388 0.452868
389 0.453383
390 0.453875
391 0.454344
392 0.45479
393 0.455212
394 0.455612
395 0.455988
396 0.456339
397 0.456666
398 0.456969
399 0.457248
400 0.457502
401 0.457729
402 0.457932
403 0.458109
404 0.45826
405 0.458385
406 0.458486
407 0.45856
408 0.458607
409 0.458627
410 0.458621
411 0.458589
412 0.45853
413 0.458444
414 0.458331
415 0.458191
416 0.458024
417 0.45783
418 0.457608
419 0.45736
420 0.457085
421 0.456783
422 0.456455
423 0.4561
424 0.455719
425 0.45531
426 0.454876
427 0.454415
428 0.453927
429 0.453413
430 0.452874
431 0.452308
432 0.451715
433 0.451097
434 0.450454
435 0.449786
436 0.449093
437 0.448376
438 0.447635
439 0.446869
440 0.446081
441 0.445269
442 0.444435
443 0.443577
444 0.442697
445 0.441794
446 0.44087
447 0.439924
448 0.438957
449 0.437971
450 0.436966
451 0.435942
452 0.434899
453 0.433839
454 0.432761
455 0.431666
456 0.430555
457 0.429428
458 0.428285
459 0.427129
460 0.425959
461 0.424776
462 0.423581
463 0.422373
464 0.421155
465 0.419925
466 0.418686
467 0.417438
468 0.416182
469 0.41492
470 0.413652
471 0.412378
472 0.411101
473 0.409821
474 0.408538
475 0.407253
476 0.405967
477 0.404681
478 0.403396
479 0.402112
480 0.400831
481 0.399552
482 0.398278
483 0.397009
484 0.395746
485 0.394489
486 0.393241
487 0.392002
488 0.390773
489 0.389555
490 0.388349
491 0.387155
492 0.385975
493 0.384809
494 0.383658
495 0.382524
496 0.381408
497 0.38031
498 0.379231
499 0.378171
500 0.377133
501 0.376116
502 0.375122
503 0.374152
504 0.373205
505 0.372284
506 0.371388
507 0.370518
508 0.369673
509 0.368856
510 0.368065
511 0.367303
512 0.366569
513 0.365865
514 0.36519
515 0.364546
516 0.363932
517 0.363349
518 0.362797
519 0.362277
520 0.361788
521 0.361331
522 0.360905
523 0.360511
524 0.360149
525 0.359819
526 0.359521
527 0.359256
528 0.359023
529 0.358822
530 0.358653
531 0.358515
532 0.35841
533 0.358336
534 0.358292
535 0.35828
536 0.358297
537 0.358344
538 0.358421
539 0.358526
540 0.358661
541 0.358824
542 0.359013
543 0.35923
544 0.359474
545 0.359743
546 0.360037
547 0.360355
548 0.360697
549 0.361062
550 0.361449
551 0.361856
552 0.362284
553 0.362731
554 0.363198
555 0.363683
556 0.364185
557 0.364704
558 0.365238
559 0.365787
560 0.366349
561 0.366924
562 0.367511
563 0.368109
564 0.368717
565 0.369333
566 0.369959
567 0.370593
568 0.371234
569 0.371881
570 0.372533
571 0.373191
572 0.373852
573 0.374516
574 0.375182
575 0.37585
576 0.376518
577 0.377186
578 0.377854
579 0.378521
580 0.379186
581 0.379849
582 0.380511
583 0.38117
584 0.381825
585 0.382478
586 0.383126
587 0.38377
588 0.38441
589 0.385045
590 0.385675
591 0.3863
592 0.386919
593 0.387532
594 0.38814
595 0.388742
596 0.389338
597 0.389929
598 0.390514
599 0.391092
600 0.391665
601 0.392231
602 0.392792
603 0.393348
604 0.393898
605 0.394442
606 0.394981
607 0.395516
608 0.396045
609 0.396569
610 0.39709
611 0.397605
612 0.398117
613 0.398625
614 0.39913
615 0.399632
616 0.40013
617 0.400626
618 0.401119
619 0.401609
620 0.402097
621 0.402584
622 0.403069
623 0.403554
624 0.404037
625 0.40452
626 0.405003
627 0.405486
628 0.40597
629 0.406455
630 0.406942
631 0.407429
632 0.407919
633 0.40841
634 0.408903
635 0.409398
636 0.409896
637 0.410397
638 0.410901
639 0.411408
640 0.411919
641 0.412433
642 0.41295
643 0.413471
644 0.413995
645 0.414523
646 0.415054
647 0.41559
648 0.41613
649 0.416673
650 0.41722
651 0.417771
652 0.418326
653 0.418886
654 0.41945
655 0.420017
656 0.420587
657 0.42116
658 0.421737
659 0.422317
660 0.422899
661 0.423485
662 0.424073
663 0.424663
664 0.425256
665 0.425849
666 0.426444
667 0.427041
668 0.427637
669 0.428235
670 0.428832
671 0.429429
672 0.430025
673 0.430621
674 0.431216
675 0.431807
676 0.432396
677 0.432982
678 0.433565
679 0.434143
680 0.434718
681 0.435288
682 0.435854
683 0.436414
684 0.436968
685 0.437515
686 0.438055
687 0.438588
688 0.439113
689 0.43963
690 0.440139
691 0.440639
692 0.441129
693 0.441609
694 0.442079
695 0.442537
696 0.442984
697 0.44342
698 0.443844
699 0.444255
700 0.444653
701 0.445038
702 0.44541
703 0.445768
704 0.446111
705 0.446439
706 0.446753
707 0.447052
708 0.447337
709 0.447606
710 0.447859
711 0.448097
712 0.448319
713 0.448524
714 0.448714
715 0.448887
716 0.449044
717 0.449184
718 0.449308
719 0.449415
720 0.449506
721 0.449581
722 0.449639
723 0.449682
724 0.449709
725 0.449722
726 0.449718
727 0.449699
728 0.449663
729 0.449612
730 0.449546
731 0.449465
732 0.449369
733 0.44926
734 0.449136
735 0.448999
736 0.448849
737 0.448686
738 0.448509
739 0.448321
740 0.44812
741 0.447909
742 0.447686
743 0.447452
744 0.447208
745 0.446954
746 0.446691
747 0.446421
748 0.446144
749 0.44586
750 0.445569
751 0.445272
752 0.444968
753 0.444659
754 0.444346
755 0.444029
756 0.443708
757 0.443384
758 0.443057
759 0.442727
760 0.442397
761 0.442066
762 0.441734
763 0.441403
764 0.441073
765 0.440744
766 0.440417
767 0.440091
768 0.439767
769 0.439445
770 0.439126
771 0.43881
772 0.438498
773 0.438191
774 0.437888
775 0.43759
776 0.437299
777 0.437013
778 0.436735
779 0.436464
780 0.4362
781 0.435943
782 0.435695
783 0.435455
784 0.435224
785 0.435
786 0.434786
787 0.434581
788 0.434384
789 0.434197
790 0.43402
791 0.433853
792 0.433696
793 0.433549
794 0.433412
795 0.433287
796 0.433172
797 0.433068
798 0.432974
799 0.432891
800 0.432819
801 0.432758
802 0.432706
803 0.432664
804 0.432633
805 0.432611
806 0.4326
807 0.432599
808 0.432608
809 0.432626
810 0.432654
811 0.432692
812 0.43274
813 0.432797
814 0.432862
815 0.432935
816 0.433015
817 0.433103
818 0.433198
819 0.433302
820 0.433411
821 0.433527
822 0.433648
823 0.433775
824 0.433907
825 0.434044
826 0.434184
827 0.434328
828 0.434475
829 0.434626
830 0.434778
831 0.434931
832 0.435086
833 0.435242
834 0.435398
835 0.435553
836 0.435708
837 0.435861
838 0.436011
839 0.436159
840 0.436302
841 0.436442
842 0.436577
843 0.436707
844 0.436831
845 0.436949
846 0.43706
847 0.437164
848 0.437261
849 0.437349
850 0.437429
851 0.437499
852 0.43756
853 0.437611
854 0.437651
855 0.43768
856 0.437698
857 0.437705
858 0.437699
859 0.437681
860 0.43765
861 0.437605
862 0.437546
863 0.437473
864 0.437385
865 0.437282
866 0.437163
867 0.437029
868 0.436878
869 0.436712
870 0.43653
871 0.436331
872 0.436117
873 0.435886
874 0.435638
875 0.435372
876 0.435089
877 0.434788
878 0.43447
879 0.434134
880 0.433781
881 0.433409
882 0.43302
883 0.432614
884 0.432189
885 0.431747
886 0.431288
887 0.430812
888 0.430318
889 0.429807
890 0.429278
891 0.428731
892 0.428169
893 0.427589
894 0.426993
895 0.42638
896 0.425751
897 0.425106
898 0.424445
899 0.423767
900 0.423073
901 0.422363
902 0.421639
903 0.420899
904 0.420144
905 0.419374
906 0.41859
907 0.417791
908 0.416977
909 0.41615
910 0.415309
911 0.414456
912 0.413589
913 0.412709
914 0.411817
915 0.410912
916 0.409997
917 0.40907
918 0.408131
919 0.407183
920 0.406224
921 0.405255
922 0.404277
923 0.40329
924 0.402294
925 0.401289
926 0.400276
927 0.399255
928 0.398226
929 0.39719
930 0.396148
931 0.3951
932 0.394047
933 0.392989
934 0.391928
935 0.390864
936 0.389797
937 0.388729
938 0.387659
939 0.38659
940 0.38552
941 0.384453
942 0.383386
943 0.382322
944 0.381262
945 0.380206
946 0.379155
947 0.37811
948 0.377073
949 0.376043
950 0.375022
951 0.374011
952 0.37301
953 0.372021
954 0.371044
955 0.37008
956 0.36913
957 0.368195
958 0.367277
959 0.366377
960 0.365494
961 0.364632
962 0.363791
963 0.362971
964 0.362173
965 0.361397
966 0.360646
967 0.35992
968 0.359219
969 0.358544
970 0.357896
971 0.357276
972 0.356684
973 0.356122
974 0.355588
975 0.355086
976 0.354613
977 0.354172
978 0.353763
979 0.353386
980 0.353041
981 0.35273
982 0.352451
983 0.352206
984 0.351994
985 0.351816
986 0.351671
987 0.35156
988 0.351482
989 0.351438
990 0.351427
991 0.351448
992 0.351502
993 0.351589
994 0.351707
995 0.351856
996 0.352036
997 0.352247
998 0.352488
999 0.352758
1000 0.353057
1001 0.353384
1002 0.353737
1003 0.354117
1004 0.354523
1005 0.354953
1006 0.355408
1007 0.355885
1008 0.356385
1009 0.356907
1010 0.357449
1011 0.358011
1012 0.358591
1013 0.359188
1014 0.359802
1015 0.360431
1016 0.361075
1017 0.361731
1018 0.3624
1019 0.363081
1020 0.363771
1021 0.36447
1022 0.365178
1023 0.365893
1024 0.366614
1025 0.36734
1026 0.368071
1027 0.368805
1028 0.369541
1029 0.370278
1030 0.371016
1031 0.371754
1032 0.372491
1033 0.373227
1034 0.37396
1035 0.374689
1036 0.375414
1037 0.376134
1038 0.376848
1039 0.377556
1040 0.378258
1041 0.378951
1042 0.379637
1043 0.380315
1044 0.380985
1045 0.381646
1046 0.382297
1047 0.382939
1048 0.38357
1049 0.384191
1050 0.384803
1051 0.385404
1052 0.385996
1053 0.386578
1054 0.387149
1055 0.387711
1056 0.388262
1057 0.388803
1058 0.389334
1059 0.389856
1060 0.390368
1061 0.390871
1062 0.391365
1063 0.391852
1064 0.392331
1065 0.392803
1066 0.393268
1067 0.393727
1068 0.39418
1069 0.394627
1070 0.39507
1071 0.395508
1072 0.395943
1073 0.396375
1074 0.396803
1075 0.397229
1076 0.397654
1077 0.398077
1078 0.3985
1079 0.398923
1080 0.399346
1081 0.399771
1082 0.400196
1083 0.400624
1084 0.401053
1085 0.401485
1086 0.401919
1087 0.402357
1088 0.402799
1089 0.403245
1090 0.403696
1091 0.404151
1092 0.404611
1093 0.405076
1094 0.405546
1095 0.406022
1096 0.406503
1097 0.40699
1098 0.407483
1099 0.407982
1100 0.408486
1101 0.408997
1102 0.409513
1103 0.410034
1104 0.410561
1105 0.411093
1106 0.411631
1107 0.412173
1108 0.41272
1109 0.413271
1110 0.413826
1111 0.414386
1112 0.41495
1113 0.415517
1114 0.416087
1115 0.416661
1116 0.417238
1117 0.417817
1118 0.418398
1119 0.41898
1120 0.419564
1121 0.420148
1122 0.420734
1123 0.421319
1124 0.421905
1125 0.422492
1126 0.423079
1127 0.423665
1128 0.424251
1129 0.424835
1130 0.425417
1131 0.425997
1132 0.426574
1133 0.427148
1134 0.427719
1135 0.428286
1136 0.428848
1137 0.429407
1138 0.429962
1139 0.430512
1140 0.431057
1141 0.431597
1142 0.432131
1143 0.432659
1144 0.433181
1145 0.433696
1146 0.434205
1147 0.434706
1148 0.4352
1149 0.435685
1150 0.436162
1151 0.43663
1152 0.43709
1153 0.43754
1154 0.43798
1155 0.438411
1156 0.438832
1157 0.439244
1158 0.439646
1159 0.440036
1160 0.440416
1161 0.440783
1162 0.441138
1163 0.441481
1164 0.441812
1165 0.442129
1166 0.442435
1167 0.442729
1168 0.443009
1169 0.443275
1170 0.443528
1171 0.443766
1172 0.44399
1173 0.4442
1174 0.444395
1175 0.444574
1176 0.444737
1177 0.444884
1178 0.445015
1179 0.44513
1180 0.445229
1181 0.445311
1182 0.445375
1183 0.445423
1184 0.445453
1185 0.445468
1186 0.445465
1187 0.445444
1188 0.445406
1189 0.445351
1190 0.445277
1191 0.445186
1192 0.445077
1193 0.44495
1194 0.444806
1195 0.444645
1196 0.444466
1197 0.44427
1198 0.444057
1199 0.443827
1200 0.44358
1201 0.443316
1202 0.443036
1203 0.442742
1204 0.442433
1205 0.442108
1206 0.441767
1207 0.441411
1208 0.44104
1209 0.440655
1210 0.440256
1211 0.439843
1212 0.439417
1213 0.438978
1214 0.438527
1215 0.438064
1216 0.437589
1217 0.437104
1218 0.436609
1219 0.436103
1220 0.435587
1221 0.435062
1222 0.434528
1223 0.433985
1224 0.433435
1225 0.432877
1226 0.432313
1227 0.431743
1228 0.431168
1229 0.430588
1230 0.430003
1231 0.429415
1232 0.428824
1233 0.428231
1234 0.427638
1235 0.427042
1236 0.426446
1237 0.42585
1238 0.425255
1239 0.424659
1240 0.424066
1241 0.423474
1242 0.422885
1243 0.422298
1244 0.421716
1245 0.421137
1246 0.420563
1247 0.419995
1248 0.419433
1249 0.418878
1250 0.41833
1251 0.417789
1252 0.417256
1253 0.416732
1254 0.416217
1255 0.415711
1256 0.415215
1257 0.41473
1258 0.414256
1259 0.413793
1260 0.413343
1261 0.412905
1262 0.412479
1263 0.412066
1264 0.411666
1265 0.41128
1266 0.410908
1267 0.410551
1268 0.41021
1269 0.409883
1270 0.409571
1271 0.409275
1272 0.408994
1273 0.408728
1274 0.408479
1275 0.408246
1276 0.40803
1277 0.40783
1278 0.407646
1279 0.40748
1280 0.407329
1281 0.407196
1282 0.407079
1283 0.40698
1284 0.406897
1285 0.406831
1286 0.406782
1287 0.406749
1288 0.406733
1289 0.406733
1290 0.406749
1291 0.406781
1292 0.406829
1293 0.406893
1294 0.406972
1295 0.407066
1296 0.407175
1297 0.407299
1298 0.407437
1299 0.407589
1300 0.407755
1301 0.407934
1302 0.408127
1303 0.408333
1304 0.408551
1305 0.408781
1306 0.409023
1307 0.409276
1308 0.409538
1309 0.40981
1310 0.410091
1311 0.410381
1312 0.410678
1313 0.410983
1314 0.411295
1315 0.411615
1316 0.41194
1317 0.412271
1318 0.412607
1319 0.412947
1320 0.41329
1321 0.413636
1322 0.413985
1323 0.414336
1324 0.414689
1325 0.415042
1326 0.415396
1327 0.415749
1328 0.416102
1329 0.416454
1330 0.416804
1331 0.417153
1332 0.417499
1333 0.417841
1334 0.418179
1335 0.418512
1336 0.418841
1337 0.419165
1338 0.419484
1339 0.419797
1340 0.420103
1341 0.420403
1342 0.420696
1343 0.420982
1344 0.421262
1345 0.421533
1346 0.421796
1347 0.422051
1348 0.422298
1349 0.422536
1350 0.422765
1351 0.422986
1352 0.423198
1353 0.423403
1354 0.423599
1355 0.423785
1356 0.423962
1357 0.42413
1358 0.42429
1359 0.424441
1360 0.424584
1361 0.424716
1362 0.42484
1363 0.424954
1364 0.425059
1365 0.425156
1366 0.425244
1367 0.425323
1368 0.425393
1369 0.425454
1370 0.425506
1371 0.425549
1372 0.425583
1373 0.425609
1374 0.425627
1375 0.425635
1376 0.425636
1377 0.425627
1378 0.425611
1379 0.425587
1380 0.425556
1381 0.425517
1382 0.42547
1383 0.425415
1384 0.425353
1385 0.425282
1386 0.425204
1387 0.425118
1388 0.425024
1389 0.424923
1390 0.424814
1391 0.424699
1392 0.424576
1393 0.424446
1394 0.424309
1395 0.424166
1396 0.424016
1397 0.423859
1398 0.423695
1399 0.423524
1400 0.423346
1401 0.423161
1402 0.42297
1403 0.422771
1404 0.422566
1405 0.422354
1406 0.422136
1407 0.421911
1408 0.421679
1409 0.421442
1410 0.421198
1411 0.420947
1412 0.420691
1413 0.420429
1414 0.420162
1415 0.419889
1416 0.419612
1417 0.41933
1418 0.419043
1419 0.41875
1420 0.418453
1421 0.418151
1422 0.417845
1423 0.417535
1424 0.417222
1425 0.416905
1426 0.416585
1427 0.416262
1428 0.415936
1429 0.415607
1430 0.415276
1431 0.414943
1432 0.414607
1433 0.41427
1434 0.413931
1435 0.413591
1436 0.41325
1437 0.412908
1438 0.412566
1439 0.412223
1440 0.41188
1441 0.411537
1442 0.411194
1443 0.410852
1444 0.410511
1445 0.41017
1446 0.40983
1447 0.409492
1448 0.409156
1449 0.408821
1450 0.408489
1451 0.408159
1452 0.407832
1453 0.407509
1454 0.407189
1455 0.406872
1456 0.40656
1457 0.406251
1458 0.405945
1459 0.405641
1460 0.405341
1461 0.405045
1462 0.404751
1463 0.404461
1464 0.404175
1465 0.403893
1466 0.403615
1467 0.40334
1468 0.403068
1469 0.402801
1470 0.402537
1471 0.402278
1472 0.402022
1473 0.401768
1474 0.401518
1475 0.401271
1476 0.401027
1477 0.400786
1478 0.400547
1479 0.40031
1480 0.400075
1481 0.399841
1482 0.399609
1483 0.399378
1484 0.399148
1485 0.398918
1486 0.398689
1487 0.39846
1488 0.398232
1489 0.398005
1490 0.397777
1491 0.39755
1492 0.397321
1493 0.397092
1494 0.396861
1495 0.39663
1496 0.396397
1497 0.396163
1498 0.395926
1499 0.395686
1500 0.395445
1501 0.395201
1502 0.394955
1503 0.394706
1504 0.394453
1505 0.394197
1506 0.393937
1507 0.393672
1508 0.393404
1509 0.39313
1510 0.392853
1511 0.39257
1512 0.392283
1513 0.391991
1514 0.391695
1515 0.391393
1516 0.391086
1517 0.390775
1518 0.390458
1519 0.390137
